x,intensity
0,0.0743392
1.93425,0.0308062
3.86804,0.00574342
5.80134,-5.31988e-05
7.73418,-0.00345587
9.66654,0.000210749
11.5984,-0.000556541
13.5298,-0.00187014
15.4608,-0.000920748
17.3913,0.00233665
19.3213,-0.00215455
21.2508,-0.000474697
23.1798,0.0023919
25.1084,0.00377507
27.0365,0.000873688
28.9642,-0.00146706
30.8914,0.000163689
32.8181,0.0013402
34.7443,-0.000145274
36.67,-0.00633065
38.5953,0.00290752
40.5201,0.00775884
42.4445,0.000824581
44.3684,-0.0031285
46.2918,-0.00154481
48.2147,-0.00667849
50.1372,-0.0113232
52.0592,-0.0117979
53.9807,-0.021701
55.9018,-0.0361977
57.8224,-0.0533338
59.7425,-0.07615
61.6622,-0.0997805
63.5814,-0.118727
65.5001,-0.14181
67.4183,-0.161712
69.3361,-0.156938
71.2534,-0.136786
73.1703,-0.0837635
75.0867,-0.0241686
77.0026,0.072158
78.918,0.115464
80.833,0.127718
82.7475,0.150847
84.6616,0.139596
86.5752,0.0872828
88.4883,0.048415
90.401,0.0499537
92.3131,0.0321423
94.2249,0.0277166
96.1361,0.0396351
98.0469,0.0435166
99.9572,0.0452619
101.867,0.0293494
103.777,0.0440486
105.685,0.0139278
107.594,0.0329198
109.502,0.0194851
111.409,0.0155197
113.317,0.0167944
115.223,0.00395717
117.129,-0.0159596
119.035,-0.0125795
120.94,-0.0170277
122.845,-0.0246842
124.749,-0.017439
126.653,0.00637158
128.557,0.00467126
130.459,0.00136885
132.362,0.000689538
134.264,0.0264787
136.165,0.037853
138.066,0.0280092
139.967,0.0318374
141.867,0.0207639
143.767,0.0119104
145.666,0.0254147
147.565,0.0343582
149.463,0.0346058
151.361,0.0205347
153.258,0.0268674
155.155,0.0251098
157.052,0.0231087
158.948,0.0202544
160.843,0.00643705
162.738,0.0227916
164.633,0.0200478
166.527,0.0177541
168.421,-0.00498636
170.314,-0.00624676
172.207,-0.0230371
174.099,-0.0139299
175.991,-0.00317147
177.883,-0.00419861
179.773,0.000959624
181.664,-0.0109058
183.554,-0.000865503
185.444,0.00947143
187.333,0.031907
189.221,0.0468558
191.11,0.0348861
192.997,0.0182574
194.885,0.0220714
196.772,0.0396433
198.658,0.0250566
200.544,0.0342211
202.429,0.0478462
204.314,0.016332
206.199,-0.0233338
208.083,0.00861002
209.967,-0.00555723
211.85,-0.00713887
213.733,-0.00977016
215.615,-0.0123114
217.497,-0.00770768
219.378,-0.0104065
221.259,-0.00925863
223.14,-0.00766472
225.02,-0.0156629
226.899,-0.00469582
228.778,0.0255395
230.657,0.0253308
232.535,0.0215005
234.413,0.0199332
236.29,0.0179812
238.167,0.0167863
240.043,0.00737008
241.919,0.00122357
243.795,0.00874097
245.67,0.0537144
247.544,0.033906
249.419,0.0343746
251.292,0.0270905
253.165,0.0140956
255.038,0.0171853
256.911,0.0134
258.782,0.00240008
260.654,-0.00776907
262.525,-0.00631838
264.395,-0.00113559
266.265,-0.00545697
268.135,-0.0176968
270.004,-0.000664985
271.873,-0.00706725
273.741,-0.000433775
275.609,-0.00276838
277.476,-0.0113907
279.343,-0.018374
281.21,-0.00634907
283.076,-0.000204611
284.941,-0.00680535
286.807,0.0150082
288.671,0.011137
290.536,0.00930569
292.399,0.0141979
294.263,0.00662529
296.126,0.0345015
297.988,0.0139729
299.85,0.0350682
301.712,0.0174451
303.573,0.0224826
305.433,0.0232213
307.293,0.0121457
309.153,0.00108034
311.013,0.0152824
312.871,0.00785091
314.73,-0.00986224
316.588,0.00243282
318.445,0.0082233
320.302,0.00179034
322.159,-0.0155034
324.015,-0.00927705
325.871,-0.0179771
327.726,-0.0104495
329.581,-0.0104945
331.436,0.0199639
333.29,-0.0114684
335.143,0.00723094
336.996,0.0119227
338.849,-0.0129437
340.701,-0.0218176
342.553,0.00608308
344.404,0.0132179
346.255,-0.00898036
348.105,-0.0050191
349.955,0.0146338
351.805,0.023563
353.654,0.025474
355.503,0.0163566
357.351,-0.000607694
359.199,-0.0114214
361.046,0.00285023
362.893,0.0127206
364.739,0.000100259
366.585,0.0216499
368.431,-0.00222821
370.276,-0.0145294
372.121,0.015487
373.965,-0.00730869
375.809,0.00550812
377.652,-0.00808008
379.495,-0.00929751
381.337,0.000464466
383.179,0.00705293
385.021,-0.00193152
386.862,-0.00738849
388.703,-0.00364616
390.543,-0.0120925
392.383,-0.00470195
394.222,-0.00590302
396.061,-0.0125385
397.9,0.00799619
399.738,0.0102796
401.576,-0.00231619
403.413,-0.00265994
405.25,0.00565749
407.086,0.00300573
408.922,-0.00809645
410.757,0.0074908
412.592,-0.00372187
414.427,-0.00406971
416.261,-0.00454645
418.095,0.0298036
419.928,0.0122214
421.761,0.0150143
423.593,0.0288522
425.425,0.0102183
427.257,-0.0011274
429.088,-0.00614855
430.918,-0.00228346
432.749,0.0145315
434.578,0.0132547
436.408,0.0289852
438.237,-0.00349066
440.065,-0.0157427
441.893,0.00290138
443.721,0.0131524
445.548,0.0150798
447.375,0.00746011
449.201,-0.00980904
451.027,-0.00362775
452.852,-0.00629587
454.677,-0.00458533
456.502,0.0052544
458.326,-0.0013934
460.15,0.0116055
461.973,-0.00414132
463.796,0.00721867
465.618,0.0011581
467.44,-0.00338221
469.261,-0.00302415
471.083,-0.00529533
472.903,-0.0191229
474.723,0.0051746
476.543,-0.00365639
478.363,-0.00577002
480.182,0.0040472
482,0.000644524
483.818,-0.0225583
485.636,-0.00334948
487.453,-0.00260265
489.27,0.0156179
491.086,0.0212775
492.902,-0.00633884
494.717,-0.0169806
496.532,0.00296481
498.347,-0.00337198
500.161,0.00255354
501.975,0.0131687
503.788,0.0257482
505.601,0.018237
507.414,-0.00507844
509.226,0.0144517
511.037,0.0130071
512.849,0.0187116
514.659,-0.0139544
516.47,0.000139135
518.28,-0.0213511
520.089,-0.0168251
521.898,0.0110797
523.707,-0.00984382
525.515,-0.00126859
527.323,-0.000167781
529.13,-0.00896195
530.937,-0.00297504
532.743,-0.000554495
534.549,0.00443596
536.355,0.000169827
538.16,0.00962693
539.965,-0.00293003
541.769,-0.0286169
543.573,-0.000501296
545.377,0.0155115
547.18,0.0322507
548.982,0.0311602
550.784,0.0388576
552.586,0.0586025
554.388,0.10569
556.189,0.135933
557.989,0.15756
559.789,0.192884
561.589,0.230809
563.388,0.23669
565.187,0.22169
566.985,0.185484
568.783,0.138341
570.581,0.106737
572.378,0.0907674
574.174,0.0810565
575.971,0.0622017
577.767,0.0605157
579.562,0.0356309
581.357,0.0272685
583.151,0.0488569
584.946,0.0447627
586.739,0.0303438
588.533,0.0364371
590.326,0.0120659
592.118,0.0196835
593.91,-0.000278271
595.702,-0.0360892
597.493,-0.000861411
599.284,-0.00316124
601.074,-0.0197204
602.864,-0.00440527
604.653,0.0110735
606.442,0.000916656
608.231,-0.0170502
610.019,-0.0102469
611.807,-0.00552449
613.594,-0.00480631
615.381,-0.000417406
617.168,0.0196958
618.954,0.00270905
620.74,0.0104556
622.525,-0.00992157
624.31,0.0144148
626.094,0.0143964
627.878,0.0204365
629.662,0.0174881
631.445,0.0273871
633.228,0.00548357
635.01,0.0190963
636.792,0.0220366
638.574,0.0261677
640.355,0.0103983
642.136,0.011939
643.916,0.0150839
645.696,0.00793276
647.475,0.0350334
649.254,0.0472119
651.033,0.0220263
652.811,0.0286721
654.589,0.0078059
656.366,0.0286271
658.143,0.0277779
659.919,0.0139217
661.695,0.0479423
663.471,0.0633147
665.246,0.00211567
667.021,0.0148363
668.796,0.0159474
670.57,0.00681967
672.343,-0.00951235
674.116,-0.0145765
675.889,-0.0152865
677.662,-0.000671123
679.433,0.000705907
681.205,0.00111717
682.976,-0.0110919
684.747,-0.00480835
686.517,-0.00829287
688.287,-0.00561656
690.056,-0.000337608
691.825,0.0179198
693.594,-0.00563498
695.362,-0.000601555
697.13,-0.00170031
698.897,0.0195014
700.664,0.0157673
702.431,0.0182001
704.197,0.0274649
705.963,0.0407421
707.728,0.0460681
709.493,0.056849
711.257,0.0561615
713.021,0.0406787
714.785,0.0371553
716.548,0.0515599
718.311,0.0666069
720.073,0.0696904
721.836,0.0489224
723.597,0.0679737
725.358,0.123667
727.119,0.113193
728.879,0.116233
730.639,0.0762073
732.399,0.0953384
734.158,0.0860552
735.917,0.0501255
737.675,0.0300348
739.433,0.000994408
741.19,0.00547538
742.947,0.0166492
744.704,0.00176988
746.46,-0.0105641
748.216,-0.00936503
749.972,-0.00108648
751.727,0.0109855
753.481,-0.00255968
755.236,-0.00455463
756.989,-0.00552653
758.743,0.0141959
760.496,-0.01074
762.248,0.00124608
764,0.00042559
765.752,-0.012559
767.504,0.00610149
769.254,0.0110347
771.005,0.00929342
772.755,-0.0174778
774.505,-0.0211608
776.254,-0.00657005
778.003,0.0135698
779.752,0.0227548
781.5,0.00994817
783.247,-0.0111451
784.995,-0.00728823
786.741,0.0106213
788.488,0.0155566
790.234,0.0187035
791.98,0.00790616
793.725,0.013267
795.47,0.01482
797.214,0.0347429
798.958,0.032795
800.702,0.0524786
802.445,0.0444967
804.188,0.0611152
805.93,0.0608881
807.672,0.0859447
809.414,0.104832
811.155,0.15754
812.896,0.190548
814.636,0.184367
816.376,0.223685
818.116,0.287642
819.855,0.287521
821.594,0.279429
823.332,0.259457
825.07,0.205366
826.808,0.147604
828.545,0.12152
830.282,0.11735
832.018,0.113037
833.754,0.067898
835.489,0.0513593
837.224,0.0538576
838.959,0.00692812
840.694,0.00401855
842.428,0.0113334
844.161,0.0156773
845.894,0.0300184
847.627,0.0272337
849.359,0.0296215
851.091,0.00429273
852.823,-0.00236121
854.554,0.0119861
856.285,0.0142696
858.015,0.018992
859.745,0.00884532
861.474,-0.0123401
863.203,-0.00992362
864.932,0.0038344
866.66,-0.00487996
868.388,0.00805143
870.116,0.00306916
871.843,-0.0211997
873.57,0.0122357
875.296,0.0205102
877.022,-0.0228755
878.748,-0.00299345
880.473,0.0124362
882.197,0.0233031
883.922,-0.000933025
885.646,-0.000902333
887.369,0.0184293
889.092,0.0229737
890.815,0.000501296
892.537,-0.00187628
894.259,0.0089599
895.981,0.00981313
897.702,0.0276306
899.423,0.0246986
901.143,0.0150287
902.863,-0.00671737
904.583,-0.0216601
906.302,-0.00934866
908.021,-0.00288296
909.739,-0.00200928
911.457,0.0225092
913.174,0.00434184
914.892,-0.00395512
916.608,0.0183331
918.325,0.0264828
920.041,0.019303
921.756,-0.0108116
923.472,-0.0213654
925.186,-0.0167269
926.901,-0.0132813
928.615,-0.00370345
930.328,-0.00453622
932.042,-0.013803
933.755,0.000296686
935.467,0.020858
937.179,0.00474288
938.891,0.00992157
940.602,0.0306773
942.313,0.0139504
944.023,-0.0117099
945.733,0.0194482
947.443,0.0145683
949.152,0.0424363
950.861,0.0356964
952.57,0.0582731
954.278,0.0426286
955.985,0.0137048
957.693,0.0379839
959.4,0.0385875
961.106,0.0452517
962.812,0.0421232
964.518,0.0583263
966.223,0.0578148
967.928,0.0648473
969.633,0.054807
971.337,0.0512243
973.041,0.0637833
974.744,0.0564132
976.447,0.0625393
978.15,0.0660176
979.852,0.0680269
981.554,0.0747791
983.255,0.0691748
984.957,0.0801378
986.657,0.0528673
988.357,0.0388678
990.057,0.0756589
991.757,0.0655859
993.456,0.032439
995.155,0.0356309
996.853,0.0386551
998.551,0.0171853
1000.25,0.0148568
1001.95,0.00183127
1003.64,0.0246904
1005.34,0.0170011
1007.03,0.00521553
1008.73,0.0263661
1010.43,0.0103349
1012.12,-0.0171934
1013.81,-0.016508
1015.51,-0.0240888
1017.2,-0.0109323
1018.9,-0.016111
1020.59,0.0156916
1022.28,-0.00538126
1023.97,0.0322466
1025.66,0.00185582
1027.36,0.0109815
1029.05,-0.00867345
1030.74,-0.00481858
1032.43,0.0114439
1034.12,0.024983
1035.81,0.00877575
1037.5,-0.0157059
1039.18,0.00458533
1040.87,0.00677261
1042.56,0.00383645
1044.25,0.00356432
1045.94,0.0140608
1047.62,-0.00545697
1049.31,0.00383031
1050.99,0.0368954
1052.68,0.0332963
1054.36,0.0325536
1056.05,0.0468006
1057.73,0.0387737
1059.42,0.0490513
1061.1,0.0552367
1062.78,0.051656
1064.47,0.0561145
1066.15,0.0575017
1067.83,0.038829
1069.51,0.0584286
1071.2,0.0494135
1072.88,0.0724874
1074.56,0.071536
1076.24,0.0519097
1077.92,0.0512795
1079.6,0.0722317
1081.28,0.063595
1082.95,0.069183
1084.63,0.063861
1086.31,0.06639
1087.99,0.0520509
1089.66,0.0429314
1091.34,0.0566424
1093.02,0.0585043
1094.69,0.0364514
1096.37,0.0237573
1098.04,0.0345055
1099.72,0.0339306
1101.39,0.0213798
1103.07,0.0127206
1104.74,-0.00114991
1106.41,0.0363675
1108.09,-0.00970059
1109.76,0.0063859
1111.43,0.0271764
1113.1,0.00443187
1114.78,0.0145396
1116.45,-0.00279294
1118.12,-0.0143596
1119.79,-0.0256418
1121.46,-0.0199189
1123.13,0.00146501
1124.8,0.016553
1126.46,0.00940186
1128.13,0.0123687
1129.8,0.0103349
1131.47,-0.0120434
1133.14,-0.00864276
1134.8,0.00258628
1136.47,0.0211281
1138.13,0.0216253
1139.8,0.00611581
1141.47,0.00810054
1143.13,0.00552449
1144.79,-0.0120904
1146.46,0.00346406
1148.12,0.0196099
1149.79,0.0136741
1151.45,0.00524826
1153.11,0.01651
1154.77,0.0165039
1156.44,0.0211404
1158.1,0.0336646
1159.76,0.0154829
1161.42,-0.00110081
1163.08,0.00851794
1164.74,0.00258833
1166.4,0.00897423
1168.06,0.0238678
1169.72,-0.0100096
1171.38,-0.0202094
1173.03,-0.00182104
1174.69,0.000926886
1176.35,0.0389845
1178.01,0.0270454
1179.66,0.00758492
1181.32,0.0257093
1182.98,0.0334272
1184.63,0.0427575
1186.29,0.0180323
1187.94,0.00300369
1189.6,0.00348247
1191.25,-0.0218299
1192.9,0.0111983
1194.56,-0.0108137
1196.21,-0.0199311
1197.86,-0.0141652
1199.51,-0.00295867
1201.17,0.0118142
1202.82,0.0018906
1204.47,0.00947348
1206.12,0.00173101
1207.77,0.00581299
1209.42,0.00298936
1211.07,-0.0100648
1212.72,0.0152087
1214.37,0.0266751
1216.01,0.0324901
1217.66,-0.013359
1219.31,0.00370959
1220.96,-0.000398991
1222.6,0.00347224
1224.25,-0.0185439
1225.9,0.00121539
1227.54,-0.00700792
1229.19,-0.0271396
1230.83,-0.00324513
1232.48,0.020991
1234.12,0.00742328
1235.77,0.0218504
1237.41,0.0449407
1239.05,0.0425856
1240.7,0.0301801
1242.34,0.0394346
1243.98,0.0303356
1245.62,0.0365967
1247.26,0.0502278
1248.9,0.0254208
1250.55,0.0222187
1252.19,0.0421989
1253.83,0.0581504
1255.47,0.0585228
1257.1,0.0459924
1258.74,0.0383686
1260.38,0.0328953
1262.02,0.0598016
1263.66,0.0719861
1265.29,0.0991339
1266.93,0.0947082
1268.57,0.123859
1270.2,0.120761
1271.84,0.205626
1273.48,0.241565
1275.11,0.291994
1276.75,0.465835
1278.38,0.596191
1280.01,0.710194
1281.65,0.827388
1283.28,0.919287
1284.91,0.959782
1286.55,1
1288.18,0.982868
1289.81,0.901795
1291.44,0.818451
1293.07,0.711969
1294.7,0.650496
1296.33,0.580397
1297.96,0.507252
1299.59,0.426662
1301.22,0.327019
1302.85,0.292867
1304.48,0.253459
1306.11,0.204289
1307.73,0.192348
1309.36,0.126249
1310.99,0.110784
1312.62,0.0965374
1314.24,0.0648391
1315.87,0.0699953
1317.49,0.0529082
1319.12,0.0303622
1320.74,0.0192007
1322.37,0.0209624
1323.99,0.0227916
1325.62,0.0232295
1327.24,0.0112925
1328.86,0.00113354
1330.48,0.0130357
1332.11,0.00443801
1333.73,-0.0130214
1335.35,0.00422112
1336.97,-0.00490452
1338.59,0.0036257
1340.21,-0.0110776
1341.83,-0.0126736
1343.45,-0.00101078
1345.07,0.0292
1346.69,0.00367481
1348.31,-0.0187423
1349.93,-0.0192436
1351.55,0.0341454
1353.16,-0.00541195
1354.78,0.00182308
1356.4,-0.003417
1358.01,-0.0125856
1359.63,-0.00107421
1361.25,-0.00543241
1362.86,0.00848725
1364.48,0.00478584
1366.09,0.0128189
1367.71,0.0086182
1369.32,-0.00910313
1370.93,0.0138767
1372.55,0.0209214
1374.16,-0.00803097
1375.77,-0.00445028
1377.38,0.00182513
1379,0.0411595
1380.61,0.0287764
1382.22,0.00057291
1383.83,0.0199189
1385.44,-0.0044953
1387.05,0.0265994
1388.66,0.0158144
1390.27,-0.0103635
1391.88,0.0194462
1393.49,0.00482063
1395.09,0.000548357
1396.7,0.0225297
1398.31,0.0489818
1399.92,0.0534013
1401.52,0.0682029
1403.13,0.107942
1404.74,0.111005
1406.34,0.117729
1407.95,0.151925
1409.55,0.16382
1411.16,0.186188
1412.76,0.218753
1414.36,0.248373
1415.97,0.331656
1417.57,0.412786
1419.17,0.475043
1420.78,0.47216
1422.38,0.511887
1423.98,0.585256
1425.58,0.600291
1427.18,0.662045
1428.78,0.615588
1430.38,0.57893
1431.98,0.54361
1433.58,0.436748
1435.18,0.361725
1436.78,0.27409
1438.38,0.233324
1439.98,0.178666
1441.58,0.100752
1443.17,0.0410449
1444.77,0.0559426
1446.37,0.0293657
1447.96,0.0130091
1449.56,0.0228796
1451.15,0.0224437
1452.75,0.0224049
1454.35,0.0164323
1455.94,0.00261083
1457.53,0.00324717
1459.13,0.0134122
1460.72,0.00642273
1462.31,0.00319807
1463.91,0.0379103
1465.5,-0.0095942
1467.09,0.0225195
1468.68,0.00260879
1470.28,0.0190165
1471.87,0.00729642
1473.46,-0.0299223
1475.05,-0.0108403
1476.64,-0.000800028
1478.23,-0.00737417
1479.82,-0.00818238
1481.41,-0.0188631
1482.99,-0.00349884
1484.58,-0.00713887
1486.17,0.00367276
1487.76,0.0226811
1489.35,0.0105988
1490.93,0.0137314
1492.52,0.0663123
1494.1,0.090839
1495.69,0.0994019
1497.28,0.142065
1498.86,0.186832
1500.45,0.228505
1502.03,0.253216
1503.61,0.295572
1505.2,0.334802
1506.78,0.308627
1508.36,0.291662
1509.95,0.242543
1511.53,0.209272
1513.11,0.112251
1514.69,0.142781
1516.27,0.0462154
1517.85,-0.0114275
1519.44,0.0296379
1521.02,0.0141018
1522.6,-0.00970469
1524.17,0.0170359
1525.75,-0.00848725
1527.33,0.0170523
1528.91,0.00986837
1530.49,-0.022366
1532.07,-0.017175
1533.64,-0.00209726
1535.22,-0.0211117
1536.8,-0.00452394
1538.37,0.0208867
1539.95,0.0123073
1541.53,0.0100689
1543.1,-0.0133365
1544.68,0.00219547
1546.25,0.01642
1547.83,-0.0375174
1549.4,0.000787751
1550.97,0.0385384
1552.55,0.00622426
1554.12,0.0152824
1555.69,0.0388474
1557.26,0.0283038
1558.84,0.0434511
1560.41,0.0774206
1561.98,0.0784702
1563.55,0.0481244
1565.12,0.0575079
1566.69,0.099584
1568.26,0.117348
1569.83,0.128201
1571.4,0.163175
1572.97,0.160814
1574.53,0.147751
1576.1,0.178224
1577.67,0.186437
1579.24,0.162332
1580.8,0.157644
1582.37,0.132522
1583.94,0.108433
1585.5,0.116372
1587.07,0.108082
1588.63,0.0759883
1590.2,0.0666478
1591.76,0.048462
1593.33,0.0342416
1594.89,0.0285575
1596.46,0.0272828
1598.02,0.0582506
1599.58,0.042512
1601.14,0.0079082
1602.71,0.00168395
1604.27,0.0169622
1605.83,0.010607
1607.39,-0.00519302
1608.95,0.0491864
1610.51,0.0344135
1612.07,0.0339613
1613.63,0.0468825
1615.19,0.0419902
1616.75,0.0607817
1618.31,0.0548132
1619.87,0.0512693
1621.43,0.0747422
1622.98,0.0869759
1624.54,0.0845063
1626.1,0.0779751
1627.65,0.0746686
1629.21,0.0662366
1630.77,0.0435739
1632.32,0.0375113
1633.88,0.0189388
1635.43,-0.00382213
1636.99,0.0253369
1638.54,0.0339081
1640.1,0.0347122
1641.65,0.00211363
1643.2,0.00941414
1644.76,-0.00559406
1646.31,-0.0108996
1647.86,-0.00851385
1649.41,0.0111411
1650.96,-0.0249973
1652.52,0.0105047
1654.07,-0.0141488
1655.62,-0.0124035
1657.17,-0.000959624
1658.72,0.00740281
1660.27,0.0098561
1661.82,-5.52449e-05
1663.36,-0.00732097
1664.91,0.00210954
1666.46,0.0124158
1668.01,0.0146685
1669.56,-0.00483086
1671.1,-0.0111738
1672.65,0.0188999
1674.2,0.00750307
1675.74,0.0078591
1677.29,-0.0349393
1678.83,-0.00779567
1680.38,-0.0156323
1681.92,0.00263948
1683.47,0.00112536
1685.01,0.0166123
1686.56,0.000894149
1688.1,0.0100034
1689.64,-0.0266915
1691.19,-0.00345587
1692.73,0.0101323
1694.27,0.0145171
1695.81,0.0085916
1697.35,0.0206411
1698.89,-0.00571273
1700.43,-0.0149038
1701.98,0.00326763
1703.52,-0.00058314
1705.06,-0.000161642
1706.59,0.00401855
1708.13,-0.0105661
1709.67,-0.00193971
1711.21,0.0163545
1712.75,0.0233829
1714.29,0.0065148
1715.82,-0.000552449
1717.36,-0.0143862
1718.9,0.00761561
1720.43,0.00156527
1721.97,-0.029376
1723.51,-0.00413314
1725.04,0.0187035
1726.58,0.0154215
1728.11,-0.0176293
1729.65,0.0106561
1731.18,-0.0255088
1732.71,0.000832766
1734.25,-0.0096433
1735.78,0.000538126
1737.31,0.0238699
1738.84,0.0131094
1740.38,-0.00271109
1741.91,0.029689
1743.44,0.00529328
1744.97,-0.0212591
1746.5,0.00494749
1748.03,0.000265994
1749.56,-0.0104638
1751.09,-0.0194135
1752.62,-0.00855887
1754.15,0.00896195
1755.68,0.0115932
1757.21,0.00649434
1758.73,-0.004127
1760.26,0.00203178
1761.79,-0.00487587
1763.32,-0.0249134
1764.84,-0.0151985
1766.37,0.00710204
1767.9,0.0419391
1769.42,0.028803
1770.95,0.0057557
1772.47,0.0103615
1774,0.00595826
1775.52,0.0478871
1777.04,0.00662529
1778.57,0.000343746
1780.09,0.00169827
1781.61,-0.0111533
1783.14,-0.00138931
1784.66,0.0129212
1786.18,0.0248193
1787.7,0.0199414
1789.23,0.00411881
1790.75,0.0122009
1792.27,0.0190881
1793.79,0.0289442
1795.31,0.0229164
1796.83,0.0169172
1798.35,0.0204386
1799.87,0.0107339
1801.38,0.00855887
1802.9,0.0129334
1804.42,-0.00969446
1805.94,0.0126122
1807.46,0.0249032
1808.97,0.00618129
1810.49,0.016686
1812.01,0.0119043
1813.52,-0.0120475
1815.04,-0.00740895
1816.55,-0.00907244
1818.07,-0.000687492
1819.58,-0.00561247
1821.1,0.00436025
1822.61,-0.00236325
1824.13,-0.00760333
1825.64,0.00332083
1827.15,0.0243998
1828.67,0.000523803
1830.18,0.00384668
1831.69,0.0188938
1833.2,0.0149898
1834.71,-0.00264152
1836.23,0.00899673
1837.74,0.00142409
1839.25,0.0120966
1840.76,-0.0086223
1842.27,-0.00461602
1843.78,-0.0053076
1845.29,-0.0245042
1846.79,-0.0123135
1848.3,0.000603602
1849.81,9.00287e-05
1851.32,0.0111063
1852.83,0.0151596
1854.33,0.0123114
1855.84,0.0136087
1857.35,0.000577002
1858.85,-0.00578025
1860.36,-0.0205511
1861.87,-0.0027868
1863.37,0.00676852
1864.88,0.00389579
1866.38,0.0102367
1867.89,-0.0111758
1869.39,0.00219957
1870.89,-0.00541809
1872.4,-0.0028932
1873.9,0.00669282
1875.4,0.0123605
1876.9,0.0133365
1878.41,-0.00916451
1879.91,-0.007988
1881.41,0.0157591
1882.91,-0.0003417
1884.41,0.00338221
1885.91,-0.0102592
1887.41,-0.00713273
1888.91,-0.00424363
1890.41,0.00176784
1891.91,0.0114848
1893.41,0.00479403
1894.91,0.00620584
1896.41,0.00653731
1897.9,-0.00189879
1899.4,-0.000356023
1900.9,0.00929751
1902.4,-0.0044953
1903.89,0.0143616
1905.39,0.00719207
1906.88,-0.0103983
1908.38,-0.00192129
1909.88,-0.0179935
1911.37,-0.00167372
1912.87,-0.0286598
1914.36,-0.0109692
1915.85,0.0172569
1917.35,0.00720843
1918.84,0.0293412
1920.33,-0.00762993
1921.83,0.0215046
1923.32,0.00706112
1924.81,-0.0115441
1926.3,-0.0299632
1927.79,-0.00675011
1929.29,-0.0092259
1930.78,-0.00930774
1932.27,0.0136209
1933.76,0.0255722
1935.25,0.0115032
1936.74,-0.00430092
1938.23,0.00134429
1939.71,0.0144557
1941.2,0.0160988
1942.69,0.0170911
1944.18,0.0182554
1945.67,0.0241625
1947.15,0.0150307
1948.64,0.0131831
1950.13,0.00902333
1951.61,0.00480221
1953.1,0.00640227
1954.59,-0.0252878
1956.07,-0.0118285
1957.56,0.00951849
1959.04,0.00691175
1960.53,0.00330855
1962.01,0.00908471
1963.49,0.0216928
1964.98,0.013267
1966.46,-0.0205654
1967.94,-0.00566976
1969.43,-0.0103083
1970.91,-0.0113702
1972.39,0.00456282
1973.87,-0.00098827
1975.35,-0.00459351
1976.83,-0.00246351
1978.31,0.00906835
1979.79,0.0303908
1981.27,0.0206984
1982.75,0.00329014
1984.23,-0.00932002
1985.71,-0.00022098
1987.19,0.00301392
1988.67,-0.000550403
1990.15,-0.00096167
1991.63,-0.00854659
1993.1,0.00691584
1994.58,0.00430706
1996.06,-0.0141672
1997.53,-0.00166144
1999.01,0.00299959
2000.48,0.0049659
2001.96,-0.00256582
2003.44,-0.000791843
2004.91,0.00113764
2006.39,0.00281544
2007.86,0.00229164
2009.33,-0.00166962
2010.81,-0.00498432
2012.28,0.00165325
2013.75,0.0175761
2015.23,0.0152926
2016.7,-0.00161029
2018.17,0.00181285
2019.64,0.000130951
2021.11,-0.0134552
2022.59,-0.00965763
2024.06,-0.00929546
2025.53,-0.0039408
2027,0.00895786
2028.47,-0.00308144
2029.94,0.00290956
2031.41,0.00402878
2032.87,0.0136659
2034.34,-0.00211567
2035.81,-0.00698336
2037.28,-0.00309371
2038.75,0.00871028
2040.21,0.0241482
2041.68,0.00369732
2043.15,0.0215782
2044.61,0.00481449
2046.08,-0.00733939
2047.55,-0.00896604
2049.01,0.0127882
2050.48,0.0212365
2051.94,0.0168886
2053.41,0.00379348
2054.87,0.00378121
2056.33,0.0330528
2057.8,0.0105272
2059.26,-0.00432547
2060.72,-0.0259078
2062.19,-0.0293105
2063.65,-0.00163484
2065.11,0.00287887
2066.57,-0.00194789
2068.04,0.00140158
2069.5,0.00146501
2070.96,0.0273421
2072.42,0.015043
2073.88,0.00419452
2075.34,-0.000376484
2076.8,-0.0109958
2078.26,-0.00904993
2079.72,0.000930979
2081.17,-0.0198145
2082.63,-0.0150082
2084.09,0.0149611
2085.55,0.0130337
2087.01,0.00590302
2088.46,0.00550812
2089.92,0.00329219
2091.38,-0.00516642
2092.83,-0.0103083
2094.29,-0.00614651
2095.74,0.0159187
2097.2,-0.00327991
2098.65,-0.000137089
2100.11,0.0161376
2101.56,-0.0189163
2103.02,0.0236325
2104.47,-0.00805552
2105.92,-0.00979676
2107.38,-0.000257809
2108.83,-0.0203772
2110.28,0.00372801
2111.73,0.0061506
2113.19,0.0111738
2114.64,-0.00106602
2116.09,-0.00411881
2117.54,0.01127
2118.99,0.00811486
2120.44,-0.0114889
2121.89,-0.0243916
2123.34,-0.00841768
2124.79,-0.0066478
2126.24,-0.00713068
2127.69,0.00794913
2129.14,0.0110653
2130.58,0.014024
2132.03,0.000167781
2133.48,0.00380576
2134.93,-0.0019704
2136.37,0.0190349
2137.82,0.00135862
2139.27,0.0135166
2140.71,-0.00255354
2142.16,0.0025474
2143.6,0.0307694
2145.05,0.0364759
2146.49,0.0294005
2147.94,0.0515599
2149.38,0.015933
2150.83,0.0132035
2152.27,0.012336
2153.71,0.0168742
2155.16,0.00142818
2156.6,0.00752149
2158.04,0.0122848
2159.48,0.0197715
2160.93,0.0289238
2162.37,0.0203199
2163.81,0.0166533
2165.25,0.00666622
2166.69,-0.00893944
2168.13,-0.00451576
2169.57,0.0143166
2171.01,-0.00298322
2172.45,-0.00293207
2173.89,-0.0197633
2175.33,-0.012291
2176.77,-0.00287478
2178.2,0.0174103
2179.64,0.00750921
2181.08,0.00242054
2182.52,-0.00131155
2183.95,0.00715933
2185.39,0.0107646
2186.83,0.0108321
2188.26,-0.00752149
2189.7,0.00532806
2191.13,-0.0187321
2192.57,-0.0240336
2194,-0.0136148
2195.44,0.00649639
2196.87,0.0124751
2198.3,0.0085691
2199.74,0.00171464
2201.17,-0.00777521
2202.6,-0.00907653
2204.04,0.00900492
2205.47,0.0116567
2206.9,0.00308553
2208.33,0.00600942
2209.76,-0.00769745
2211.2,0.00668463
2212.63,-0.010697
2214.06,-0.00627541
2215.49,0.00369118
2216.92,0.00714091
2218.35,-0.0166267
2219.78,0.0166942
2221.21,0.0218872
2222.63,-0.00145683
2224.06,0.0156057
2225.49,-0.00269472
2226.92,0.000396945
2228.35,-0.00698336
2229.77,-0.0140608
2231.2,0.00405948
2232.63,-0.000513573
2234.05,0.00501296
2235.48,-0.000458328
2236.91,0.000679308
2238.33,-5.7291e-05
2239.76,-0.00363798
2241.18,0.00774247
2242.6,0.0142777
2244.03,0.00689947
2245.45,0.00283386
2246.88,-0.00603397
2248.3,-0.0204406
2249.72,-0.00287478
2251.15,0.00198063
2252.57,-0.027025
2253.99,-0.00169827
2255.41,0.0125079
2256.83,0.0070959
2258.26,0.0104679
2259.68,0.00271928
2261.1,0.0173346
2262.52,0.0153806
2263.94,0.00221798
2265.36,0.00572501
2266.78,0.0174083
2268.2,-0.00557564
2269.61,0.00569227
2271.03,0.00235916
2272.45,-0.00325126
2273.87,-0.00813941
2275.29,-0.00514187
2276.7,-0.00182104
2278.12,-0.00106398
2279.54,0.0056493
2280.95,0.000990316
2282.37,-0.011139
2283.79,-0.0142634
2285.2,-0.0106295
2286.62,0.00647184
2288.03,0.0109139
2289.45,0.00718797
2290.86,0.0164323
2292.28,0.00825809
2293.69,0.00087778
2295.1,-0.0224929
2296.52,-0.0235916
2297.93,0.0234627
2299.34,0.0265012
2300.75,0.00768313
2302.17,0.00674397
2303.58,0.00296276
2304.99,-0.0147054
2306.4,-0.00988679
2307.81,-0.0192314
2309.22,-0.0150921
2310.63,0.00207884
2312.04,0.0143555
2313.45,0.0429232
2314.86,0.0185664
2316.27,-0.00997273
2317.68,-0.00384259
2319.09,0.0131585
2320.5,0.00113968
2321.9,-0.0189347
2323.31,-0.01003
2324.72,0.00285637
2326.13,0.00425999
2327.53,-0.00771996
2328.94,0.000640431
2330.35,-0.00341086
2331.75,-0.00781613
2333.16,0.011362
2334.56,-0.0102919
2335.97,0.0171996
2337.37,0.0178646
2338.78,0.013981
2340.18,-0.00564521
2341.58,0.00592348
2342.99,0.00012072
2344.39,0.0107359
2345.79,-0.00534443
2347.2,0.00114173
2348.6,0.00144251
2350,-0.0177193
2351.4,0.0088044
2352.8,-0.0124055
2354.21,-0.0060442
2355.61,0.00559815
2357.01,0.00234075
2358.41,0.00283181
2359.81,-0.00971696
2361.21,-0.00917474
2362.61,0.0145478
2364.01,0.0148629
2365.4,0.00826423
2366.8,0.00455873
2368.2,-0.00781204
2369.6,-0.00777111
2371,-0.0102162
2372.39,0.00351317
2373.79,0.0103001
2375.19,0.00368504
2376.58,0.00725959
2377.98,0.0116076
2379.38,0.0156384
2380.77,0.00245124
2382.17,-0.0188569
2383.56,0.00805348
2384.96,0.0115032
2386.35,-0.001553
2387.75,-0.026137
2389.14,-0.00730665
2390.53,0.00270291
2391.93,0.00404515
2393.32,0.00234279
2394.71,0.00113968
2396.11,0.0173878
2397.5,-0.000562679
2398.89,-0.0157039
2400.28,-0.0174942
2401.67,0.0025208
2403.06,0.00827241
2404.45,-0.00745806
2405.84,-0.0118347
2407.23,0.00273769
2408.62,0.017484
2410.01,0.0209787
2411.4,0.0118347
2412.79,0.013312
2414.18,0.00742941
2415.57,-0.0137478
2416.96,0.000695676
2418.35,-0.00732302
2419.73,0.000214841
2421.12,-0.0137969
2422.51,-0.00826627
2423.89,-0.0122398
2425.28,-0.0338283
2426.67,0.00189674
2428.05,0.00161029
2429.44,0.0167085
2430.82,0.0281176
2432.21,0.0292164
2433.59,0.0247088
2434.98,0.0146522
2436.36,0.00221184
2437.75,0.00520325
2439.13,0.0121048
2440.51,0.00843201
2441.9,0.00338221
2443.28,-0.0069629
2444.66,-0.0175822
2446.04,-0.0205941
2447.42,-0.00309167
2448.81,0.00414132
2450.19,-0.01225
2451.57,0.000955532
2452.95,0.000114582
2454.33,0.00724322
2455.71,0.0177868
2457.09,0.00834607
2458.47,0.0171955
2459.85,-0.00305075
2461.23,0.0164671
2462.61,0.000464466
2463.98,0.00487178
2465.36,-0.0223148
2466.74,-0.00707135
2468.12,0.0238044
2469.49,0.0149079
2470.87,0.00589893
2472.25,-0.0157284
2473.62,0.0112802
2475,0.0390418
2476.38,0.0301555
2477.75,0.0224949
2479.13,0.0239251
2480.5,0.028756
2481.88,0.0219752
2483.25,0.00484518
2484.63,-0.00198472
2486,-0.00297299
2487.37,0.0100525
2488.75,0.0137417
2490.12,0.00774656
2491.49,0.00574751
2492.86,0.0180098
2494.24,0.00920953
2495.61,0.00265175
2496.98,0.0223987
2498.35,-0.00430501
2499.72,-0.0235098
2501.09,-0.0238065
2502.46,0.00642478
2503.83,0.010871
2505.2,0.0228816
2506.57,0.0241707
2507.94,-0.00602783
2509.31,0.0178993
2510.68,-0.0089374
2512.05,-0.0109283
2513.42,0.0096965
2514.79,-0.0124628
2516.15,0.0279109
2517.52,-0.0227629
2518.89,-0.015397
2520.25,-0.0115053
2521.62,0.00771587
2522.99,0.0221757
2524.35,-0.00398582
2525.72,-0.0124178
2527.08,0.00653527
2528.45,0.0172528
2529.81,0.0112106
2531.18,0.00853227
2532.54,0.0106848
2533.91,-0.00453213
2535.27,-0.00595622
2536.63,-0.000824581
2538,-0.00522985
2539.36,-0.00664576
2540.72,-0.014689
2542.08,-0.0125856
2543.45,-0.00273769
2544.81,-0.0129805
2546.17,-0.00115196
2547.53,0.00901924
2548.89,0.00940391
2550.25,0.018063
2551.61,0.0174553
2552.97,0.00424158
2554.33,0.0211936
2555.69,0.00719207
2557.05,-0.0248807
2558.41,-0.0145765
2559.77,-0.0223148
2561.13,-0.00668054
2562.49,0.00660688
2563.84,0.00288706
2565.2,-0.012647
2566.56,0.000632247
2567.92,-0.0101016
2569.27,0.0266403
2570.63,0.00983359
2571.98,0.0212754
2573.34,0.024586
2574.7,0.0204877
2576.05,0.0168476
2577.41,0.0268122
2578.76,0.0209194
2580.12,0.016817
2581.47,-0.00804325
2582.82,-0.0255006
2584.18,-0.0163095
2585.53,-0.0055163
2586.88,0.00261492
2588.24,-0.000732506
2589.59,0.00747034
2590.94,0.00610354
2592.29,0.00944688
2593.65,-0.00512959
2595,-0.0167331
2596.35,0.00377711
2597.7,-0.00400832
2599.05,0.00155709
2600.4,0.0248459
2601.75,-0.00319602
2603.1,-0.0178871
2604.45,-0.00118265
2605.8,-0.0137867
2607.15,0.019837
2608.5,0.0100096
2609.84,0.00328605
2611.19,-0.00510708
2612.54,-0.0196222
2613.89,0.000519711
2615.24,-0.00298527
2616.58,0.00915633
2617.93,-0.000920748
2619.28,-0.00264766
2620.62,0.0196733
2621.97,0.0318743
2623.31,0.0328298
2624.66,0.0302517
2626,0.0139749
2627.35,0.00289524
2628.69,-0.00171259
2630.04,-0.00397763
2631.38,-0.000368299
2632.73,-0.00815783
2634.07,-0.0138337
2635.41,-0.00887397
2636.76,-0.0136578
2638.1,-0.0030753
2639.44,0.00984996
2640.78,-0.0065414
2642.12,0.00790207
2643.47,0.0314814
2644.81,0.00918497
2646.15,0.000521757
2647.49,0.0108014
2648.83,0.0414664
2650.17,0.000173919
2651.51,0.00516233
2652.85,-0.0179423
2654.19,-0.00520939
2655.53,-0.053741
2656.87,-0.0104761
2658.21,0.00413723
2659.54,0.007278
2660.88,0.00611172
2662.22,0.0128987
2663.56,0.0218688
2664.89,0.00999114
2666.23,-0.00430501
2667.57,0.000785705
2668.9,0.0142757
2670.24,0.010075
2671.58,0.00576798
2672.91,0.00481858
2674.25,0.0151351
2675.58,0.00509071
2676.92,-0.0199332
2678.25,-0.0215455
2679.58,-0.0137212
2680.92,-0.00285432
2682.25,0.0162604
2683.59,0.0274015
2684.92,0.032797
2686.25,0.0229389
2687.58,0.0207925
2688.92,-0.00760129
2690.25,-0.00702429
2691.58,-0.0216949
2692.91,-0.0268715
2694.24,-0.00569022
2695.57,0.0143002
2696.9,-0.00987451
2698.24,0.00251262
2699.57,0.0164057
2700.9,0.000879826
2702.22,0.0334416
2703.55,0.0163852
2704.88,-0.00957783
2706.21,0.020369
2707.54,-0.0119288
2708.87,-0.0318211
2710.2,-0.00778134
2711.52,0.0166389
2712.85,0.00999728
2714.18,-0.000939163
2715.51,-0.00472446
2716.83,-0.00500887
2718.16,0.000744783
2719.48,0.00485541
2720.81,0.0172262
2722.14,0.00768109
2723.46,0.00326149
2724.79,0.0102981
2726.11,0.00686469
2727.44,-0.00542832
2728.76,-0.00464057
2730.08,-0.00182717
2731.41,-0.0131749
2732.73,-0.0127125
2734.05,0.0162195
2735.38,0.017175
2736.7,-0.0111472
2738.02,-0.0116894
2739.34,-0.00163279
2740.67,0.00510504
2741.99,-0.00604625
2743.31,0.00866526
2744.63,0.00214023
2745.95,0.0061772
2747.27,0.00737212
2748.59,0.0240172
2749.91,0.00447688
2751.23,-0.0081476
2752.55,-0.0256971
2753.87,0.027115
2755.19,0.015667
2756.51,-0.025118
2757.83,-0.0192743
2759.14,-0.000380576
2760.46,-0.00862434
2761.78,0.00942232
2763.1,0.00117242
2764.41,0.0125611
2765.73,0.0101016
2767.05,-0.00261902
2768.36,0.0183699
2769.68,0.00604829
2770.99,0.00497204
2772.31,0.01269
2773.62,0.0112147
2774.94,0.0196222
2776.25,0.0262393
2777.57,0.0172159
2778.88,-0.00684627
2780.2,-0.00873278
2781.51,0.0047572
2782.82,-0.00502933
2784.14,0.00424567
2785.45,-0.00364821
2786.76,-0.00713887
2788.07,0.0282465
2789.39,-0.00700178
2790.7,-0.00171259
2792.01,-0.000750921
2793.32,0.00651071
2794.63,0.0141795
2795.94,-0.00285432
2797.25,0.00296481
2798.56,0.0113047
2799.87,-0.0130623
2801.18,-0.0150614
2802.49,-0.00891693
2803.8,-0.0156916
2805.11,-0.0151044
2806.42,0.00895172
2807.73,0.00326149
2809.03,0.00831333
2810.34,0.0073844
2811.65,0.0204508
2812.96,0.00576798
2814.26,0.00476129
2815.57,0.00124403
2816.88,-0.00144251
2818.18,0.000108444
2819.49,0.00658028
2820.79,-0.00399195
2822.1,0.0017617
2823.4,-0.00933025
2824.71,-0.00930774
2826.01,-0.00962284
2827.32,-0.00572296
2828.62,0.00729642
2829.93,0.00114787
2831.23,0.000664985
2832.53,0.00433979
2833.84,0.0160292
2835.14,0.0204161
2836.44,0.00696904
2837.74,-0.0038385
2839.04,0.0123483
2840.35,-0.00365025
2841.65,-0.0140977
2842.95,-0.0127186
2844.25,-0.018992
2845.55,0.00570659
2846.85,0.0068606
2848.15,-0.00984587
2849.45,0.00505388
2850.75,-0.00279294
2852.05,0.0211915
2853.35,-0.00515824
2854.65,0.00622221
2855.95,0.010075
2857.25,0.0119063
2858.54,-0.0171771
2859.84,0.00528714
2861.14,0.0138665
2862.44,-0.013445
2863.73,-0.00599305
2865.03,-0.0117487
2866.33,0.000421498
2867.62,0.0122685
2868.92,0.000701815
2870.21,0.00406561
2871.51,-0.0115973
2872.8,0.00107011
2874.1,0.0101344
2875.39,0.00226709
2876.69,-0.00798391
2877.98,0.00143841
2879.28,0.00165325
2880.57,-0.00105988
2881.86,0.0113579
2883.16,0.00648616
2884.45,-0.00418224
2885.74,-0.00450962
2887.03,0.00355
2888.33,0.00433775
2889.62,-0.00737622
2890.91,0.00157346
2892.2,0.00192743
2893.49,-0.0112843
2894.78,-3.8876e-05
2896.07,-0.000949394
2897.36,0.000122766
2898.65,-0.0107339
2899.94,0.0157755
2901.23,-0.000308962
2902.52,0.0052012
2903.81,0.0105477
2905.1,-0.000368299
2906.39,0.0244878
2907.68,0.0143903
2908.96,0.00477766
2910.25,0.0014466
2911.54,-0.0104638
2912.83,-0.00100259
2914.11,0.00302415
2915.4,-0.00762379
2916.69,-0.0137007
2917.97,-0.00464875
2919.26,-0.0151535
2920.55,0.00559406
2921.83,0.0182758
2923.12,0.0107502
2924.4,-0.00171464
2925.69,0.00615469
2926.97,0.00822535
2928.25,0.00619561
2929.54,0.005858
2930.82,0.000313054
2932.1,-0.0201685
2933.39,-0.021392
2934.67,0.00706725
2935.95,0.00204201
2937.24,-0.0102367
2938.52,0.0130112
2939.8,0.0170031
2941.08,0.00969855
2942.36,-0.00411881
2943.64,0.00234893
2944.92,-0.00332492
2946.2,-0.0122275
2947.48,-0.00704475
2948.76,-0.00385077
2950.04,-0.00429682
2951.32,0.00175965
2952.6,0.0059644
2953.88,-0.00058314
2955.16,0.000124813
2956.44,0.00390806
2957.72,0.00893944
2959,0.00697722
2960.27,0.0100136
2961.55,0.00345383
2962.83,0.00310394
2964.1,-0.0122173
2965.38,0.00815374
2966.66,-0.00637362
2967.93,0.000534034
2969.21,0.00416587
2970.49,-0.0137478
2971.76,0.00451576
2973.04,-0.00662939
2974.31,-0.00905607
2975.59,-0.00122766
2976.86,-9.82131e-05
2978.13,0.00895172
2979.41,0.00545288
2980.68,0.00894763
2981.96,0.00876348
2983.23,-0.00464466
2984.5,-0.00511527
2985.77,-0.00318374
2987.05,-0.00795936
2988.32,-0.00890261
2989.59,-0.00602169
2990.86,0.00154481
2992.13,0.0131094
2993.41,0.008698
2994.68,0.0100873
2995.95,0.0148077
2997.22,0.00529533
2998.49,-0.00372596
2999.76,0.00206248
3001.03,2.86455e-05
3002.3,0.000712045
3003.57,0.00277043
3004.83,0.00349475
3006.1,-0.00495363
3007.37,-0.00815987
3008.64,0.00703247
3009.91,0.0102408
3011.17,0.0102285
3012.44,0.00124608
3013.71,0.00655982
3014.98,0.000542218
3016.24,0.0199905
3017.51,0.00749489
3018.78,0.00769745
3020.04,0.0184334
3021.31,-0.0182922
3022.57,-0.0180835
3023.84,0.000857319
3025.1,-0.0189735
3026.37,-0.0152558
3027.63,0.00390193
3028.9,0.0110121
3030.16,-0.0051746
3031.42,-0.00170236
3032.69,0.00212591
3033.95,0.00979676
3035.21,0.00572501
3036.47,0.00317556
3037.74,-0.00651276
3039,-0.0131503
3040.26,0.00145274
3041.52,-0.000650662
3042.78,0.010073
3044.05,0.00961466
3045.31,0.00686469
3046.57,0.0273033
3047.83,0.0254843
3049.09,0.00431319
3050.35,0.00108239
3051.61,0.0114214
3052.87,0.00491475
3054.13,0.00144455
3055.38,0.00169622
3056.64,0.0129191
3057.9,0.0133099
3059.16,0.000990316
3060.42,-0.00536285
3061.67,-0.00325126
3062.93,-0.0168497
3064.19,-0.000791843
3065.45,0.0119043
3066.7,0.0100341
3067.96,0.014865
3069.22,0.0125897
3070.47,0.0215823
3071.73,0.00555313
3072.98,0.00288296
3074.24,0.0254433
3075.49,0.0279641
3076.75,0.00234075
3078,0.00335562
3079.26,0.00270495
3080.51,-0.00317556
3081.76,0.00681354
3083.02,0.00163689
3084.27,0.0194114
3085.52,0.0116301
3086.78,0.0010783
3088.03,0.0103779
3089.28,0.00619152
3090.53,-0.00106193
3091.78,-0.000480835
3093.03,-0.00485132
3094.29,0.00712864
3095.54,0.00982131
3096.79,0.00162461
3098.04,-0.00144455
3099.29,-0.000560633
3100.54,-0.00214023
3101.79,0.00213
3103.04,0.00709795
3104.29,0.000429682
3105.54,-0.00257605
3106.78,-0.00160415
3108.03,-0.00330242
3109.28,-0.000908471
3110.53,0.0030753
3111.78,0.00212795
3113.02,-0.00819261
3114.27,-0.0112434
3115.52,-0.00782431
3116.77,0.00143841
3118.01,0.00882077
3119.26,0.0202933
3120.5,0.0031817
3121.75,-0.00411267
3123,0.000926886
3124.24,-0.0106234
3125.49,0.000724322
3126.73,0.00358683
3127.98,0.00818443
3129.22,0.00414541
3130.46,-0.00670918
3131.71,-0.00598282
3132.95,-0.00730869
3134.19,-0.0112945
3135.44,0.00210544
3136.68,0.00976402
3137.92,0.00179853
3139.17,0.00190083
3140.41,0.00471628
3141.65,-0.00387737
3142.89,0.00482881
3144.13,-0.00283795
3145.37,-0.00632042
3146.62,0.00709795
3147.86,0.013445
3149.1,0.00970469
3150.34,0.0220038
3151.58,0.0191025
3152.82,0.00881258
3154.06,0.00845042
3155.29,0.0207046
3156.53,0.0037853
3157.77,0.00967604
3159.01,0.0142961
3160.25,0.0117774
3161.49,0.00203997
3162.72,-0.0028359
3163.96,-0.00324103
3165.2,-0.00989907
3166.44,0.00343746
3167.67,0.0115298
3168.91,0.0133918
3170.15,0.000705907
3171.38,0.00426818
3172.62,0.0162604
3173.85,0.00784682
3175.09,0.00253103
3176.32,0.0128659
3177.56,0.00333515
3178.79,0.0132219
3180.03,0.00289933
3181.26,0.00863457
3182.5,0.00803711
3183.73,0.00459556
3184.96,0.007278
3186.2,0.00769132
3187.43,0.00476743
3188.66,0.00521143
3189.89,-0.00152026
3191.13,-0.0083297
3192.36,0.00791025
3193.59,0.00149366
3194.82,-0.00479198
3196.05,0.000718184
3197.28,-0.00969241
3198.51,-0.00330855
3199.75,0.00563089
3200.98,0.00658028
3202.21,0.00978653
3203.44,0.00332492
3204.67,-0.00148547
3205.89,-0.00171259
3207.12,-0.00149775
3208.35,-0.00234279
3209.58,-0.00878394
3210.81,-0.00774656
3212.04,0.000143227
3213.27,0.0128352
3214.49,0.00113559
3215.72,0.0207823
3216.95,-0.00510708
3218.17,-0.0114009
3219.4,0.00429682
3220.63,-0.00563498
3221.85,-0.00795731
3223.08,0.00291161
3224.31,-0.00129314
3225.53,-0.00860593
3226.76,-0.00194585
3227.98,-0.00265994
3229.21,0.00494749
3230.43,0.00898446
3231.65,0.00565339
3232.88,0.00896809
3234.1,0.0106909
3235.33,0.00459146
3236.55,0.0048636
3237.77,-0.00477971
3239,-0.0119206
3240.22,-0.0071225
3241.44,-0.0029955
3242.66,0.00544878
3243.88,0.004704
3245.11,-0.000863457
3246.33,0.00590097
3247.55,0.000319193
3248.77,-0.0075931
3249.99,-0.00558996
3251.21,-0.00694039
3252.43,0.00084095
3253.65,-0.00111513
3254.87,0.00148752
3256.09,0.0117058
3257.31,0.00966376
3258.53,-0.000607694
3259.75,-0.00642887
3260.97,0.0145417
3262.18,-0.0016287
3263.4,0.00455668
3264.62,-0.00133406
3265.84,-0.00304461
3267.06,-0.000810258
3268.27,0.00591325
3269.49,0.0219957
3270.71,0.0141877
3271.92,0.0156466
3273.14,0.0206125
3274.36,0.0113641
3275.57,-0.000675215
3276.79,-0.000173919
3278,-0.00511936
3279.22,0.00163484
3280.43,0.00364821
3281.65,-0.00511936
3282.86,-0.00643296
3284.07,-0.0017351
3285.29,-0.00740895
3286.5,-0.000372391
3287.72,-0.00498022
3288.93,-0.00244714
3290.14,0.00896195
3291.35,0.00770564
3292.57,0.0144557
3293.78,0.0146931
3294.99,0.0200375
3296.2,0.00241031
3297.41,0.00431115
3298.63,-0.00204406
3299.84,0.00258219
3301.05,-0.00344155
3302.26,0.00722276
3303.47,-0.000632247
3304.68,-0.00405743
3305.89,0.0136291
3307.1,0.00327377
3308.31,-0.00999932
3309.52,-0.0144803
3310.73,-0.00704065
3311.93,0.00558383
3313.14,0.00707953
3314.35,0.00629792
3315.56,0.00456077
3316.77,0.00540172
3317.97,-0.00616287
3319.18,0.00480017
3320.39,-0.00104556
3321.6,-0.00440731
3322.8,0.00864071
3324.01,0.0145294
3325.21,0.0125938
3326.42,-0.00255559
3327.63,-0.0126634
3328.83,-0.00689538
3330.04,0.00485337
3331.24,-0.00352749
3332.45,-0.00612604
3333.65,-0.000640431
3334.86,-0.00511118
3336.06,-0.0102755
3337.26,0.00577002
3338.47,0.0155361
3339.67,0.0117406
3340.87,0.00141795
3342.08,0.00751535
3343.28,-0.000845042
3344.48,0.00456896
3345.68,-0.0035459
3346.89,-0.00126654
3348.09,0.00175147
3349.29,-0.0100014
3350.49,-0.00201746
3351.69,-0.00330651
3352.89,-0.00854659
3354.09,0.0164589
3355.29,0.00869186
3356.49,-0.00436639
3357.69,0.00316737
3358.89,0.00486155
3360.09,-0.0055736
3361.29,-0.0105334
3362.49,-0.00103738
3363.69,0.0112331
3364.89,-0.00680126
3366.09,-0.00115196
3367.28,-0.00903152
3368.48,0.00332902
3369.68,0.00750103
3370.88,0.0065987
3372.07,0.00681967
3373.27,0.00997068
3374.47,0.00274178
3375.66,-0.00125017
3376.86,0.00048902
3378.06,0.00540172
3379.25,0.00636953
3380.45,-0.00238781
3381.64,-0.00321853
3382.84,0.000550403
3384.03,-0.00104556
3385.23,0.00265789
3386.42,0.00500069
3387.61,0.00600532
3388.81,-0.00242259
3390,-0.00294026
3391.2,-0.00852817
3392.39,-0.00900901
3393.58,-0.00259856
3394.77,0.00477766
3395.97,0.00995636
3397.16,0.00790207
3398.35,0.00359296
3399.54,0.00269677
3400.73,0.000145274
3401.93,0.00236939
3403.12,-0.00632042
3404.31,-0.00208294
3405.5,-0.0153274
3406.69,-0.00510504
3407.88,0.00516233
3409.07,0.0082233
3410.26,0.0196651
3411.45,-0.00213818
3412.64,0.00163689
3413.83,-0.00238985
3415.02,-0.00430706
3416.2,-0.0108873
3417.39,0.00910927
3418.58,0.0121682
3419.77,0.00297095
3420.96,-0.00304256
3422.14,0.00910927
3423.33,-0.00363184
3424.52,-0.0104249
3425.7,-0.0034927
3426.89,0.00805143
3428.08,0.00850362
3429.26,-0.0031817
3430.45,0.00286455
3431.64,0.00688106
3432.82,0.00114377
3434.01,-1.8415e-05
3435.19,-0.000912564
3436.38,0.0112536
3437.56,0.0256786
3438.74,0.0246945
3439.93,0.0241686
3441.11,0.0279007
3442.3,0.022632
3443.48,-0.00336789
3444.66,-0.0266383
3445.85,-0.0135125
3447.03,-0.00893944
3448.21,-0.00171668
3449.39,0.0193725
3450.58,0.00498227
3451.76,0.00507025
3452.94,0.00504161
3454.12,0.00752763
3455.3,0.0116833
3456.48,-0.00711227
3457.66,0.00456486
3458.84,0.0144189
3460.02,0.0150532
3461.2,0.0225113
3462.38,0.00697722
3463.56,0.0133897
3464.74,0.00348043
3465.92,0.00394285
3467.1,0.0089108
3468.28,0.0226074
3469.46,0.0139647
3470.63,0.0113232
3471.81,0.0158082
3472.99,0.0219588
3474.17,0.0144353
3475.35,0.0014998
3476.52,0.0134552
3477.7,0.0151821
3478.88,0.00138726
3480.05,0.00183127
3481.23,0.00673374
3482.4,0.00230392
3483.58,-0.0151351
3484.76,-0.0120557
3485.93,-0.00129314
3487.11,0.00773428
3488.28,0.0108996
3489.46,0.0105354
3490.63,0.0108751
3491.8,-0.00225276
3492.98,-0.00820693
3494.15,-0.00556336
3495.33,0.000419452
3496.5,0.00101078
3497.67,-0.00435207
3498.84,0.00464262
3500.02,-0.00701201
3501.19,-0.00589893
3502.36,0.00748875
3503.53,0.00178216
3504.7,-0.00150798
3505.88,-7.5706e-05
3507.05,0.00264766
3508.22,-0.00125017
3509.39,0.00616901
3510.56,0.0103083
3511.73,-0.0119186
3512.9,0.00610763
3514.07,-0.00575365
3515.24,0.0085957
3516.41,-0.00564112
3517.58,0.00205634
3518.75,-0.00425181
3519.92,0.00949598
3521.08,0.00302415
3522.25,0.00796959
3523.42,0.00576388
3524.59,-0.00930979
3525.76,-0.00372801
3526.92,0.00620993
3528.09,-0.00122357
3529.26,-0.00156323
3530.43,-0.00597872
3531.59,0.00364821
3532.76,0.00019438
3533.92,0.0121928
3535.09,0.0136578
3536.26,-0.00112536
3537.42,-0.00106398
3538.59,-0.0135964
3539.75,-0.0169111
3540.92,0.00188856
3542.08,0.0108137
3543.25,-0.00224253
3544.41,-0.00378121
3545.57,0.00882691
3546.74,0.00416792
3547.9,-0.00574138
3549.06,0.00104556
3550.23,0.0129764
3551.39,0.00418634
3552.55,0.0166389
3553.71,0.0182124
3554.88,0.0102551
3556.04,0.0166287
3557.2,0.006568
3558.36,0.0121743
3559.52,-0.00150389
3560.68,-0.00576798
3561.85,-0.00874711
3563.01,0.00246556
3564.17,-0.00397968
3565.33,0.0125119
3566.49,-0.00234279
3567.65,0.0106745
3568.81,0.0158614
3569.96,0.015976
3571.12,0.00957783
3572.28,-0.000317147
3573.44,-0.00407789
3574.6,-0.0339511
3575.76,-0.0233911
3576.92,-0.000210749
3578.07,0.00667645
3579.23,0.00304665
3580.39,0.00326968
3581.55,-0.00444005
3582.7,-0.00208703
3583.86,-0.00518074
3585.02,0.00489633
3586.17,0.0193869
3587.33,0.0146644
3588.48,0.0164814
3589.64,0.0108873
3590.79,0.0220632
3591.95,0.0118879
3593.1,0.00428455
3594.26,-0.00703452
3595.41,-0.00140977
3596.57,0.0054672
3597.72,-0.003994
3598.88,-0.0135984
3600.03,-0.00510504
3601.18,-0.00453417
3602.34,0.00436844
3603.49,0.0132526
3604.64,0.00105579
3605.79,-0.00187014
3606.95,0.00216887
3608.1,0.00488815
3609.25,0.0157816
3610.4,0.0163095
3611.55,0.00638999
3612.7,0.0063859
3613.86,0.00298322
3615.01,-0.00217092
3616.16,-0.00551017
3617.31,-0.00305688
3618.46,-0.0118572
3619.61,0.00297913
3620.76,0.0129662
3621.91,0.00114582
3623.06,-0.00774861
3624.2,-0.00117856
3625.35,-0.000444005
3626.5,0.0123483
3627.65,-0.00346406
3628.8,0.00414132
3629.95,0.00156936
3631.09,0.00691993
3632.24,0.00345178
3633.39,0.00201746
3634.54,0.00436025
3635.68,-0.0104229
3636.83,-0.0124956
3637.98,-0.0062529
3639.12,0.00940391
3640.27,0.0037055
3641.41,0.0038917
3642.56,0.00275406
3643.7,0.00253922
3644.85,0.00650662
3645.99,-0.00284
3647.14,-0.00160824
3648.28,-0.00523803
3649.43,0.00950826
3650.57,0.0103615
3651.72,0.00447893
3652.86,0.0118817
3654,0.00632042
3655.15,-0.00519302
3656.29,-0.00715933
3657.43,-0.0119513
3658.57,-0.00741509
3659.72,-0.00557973
3660.86,0.000237348
3662,0.00287069
3663.14,0.00586414
3664.28,0.00413314
3665.43,-0.0018108
3666.57,0.00276838
3667.71,0.00858956
3668.85,0.0125181
3669.99,0.0168599
3671.13,0.0205859
3672.27,0.0282035
3673.41,0.0206718
3674.55,0.00729642
3675.69,0.0106029
3676.83,0.00849339
3677.97,-0.00387533
3679.1,-0.0114377
3680.24,0.00142818
3681.38,0.00261697
3682.52,-0.000685446
3683.66,-0.00133611
3684.79,0.00265175
3685.93,0.0112004
3687.07,0.00836449
3688.21,-0.0109589
3689.34,-0.0196856
3690.48,-0.00655368
3691.62,-0.00227527
3692.75,0.0131299
3693.89,0.00328196
3695.02,0.0136925
3696.16,0.00911131
3697.29,-0.00326149
3698.43,0.00539968
3699.56,-0.00271518
3700.7,-0.00303028
3701.83,0.00376484
3702.97,0.0067542
3704.1,0.00201951
3705.23,-0.0150246
3706.37,0.00555518
3707.5,0.00693221
3708.63,0.0104024
3709.77,0.0157673
3710.9,0.0234545
3712.03,0.0135309
3713.17,-0.00392239
3714.3,0.0178502
3715.43,0.00834607
3716.56,0.0134532
3717.69,0.0199598
3718.82,0.0107687
3719.95,-0.000247579
3721.09,0.00200928
3722.22,0.00684423
3723.35,-0.00883304
3724.48,0.000566772
3725.61,0.00805757
3726.74,0.0078059
3727.87,0.0127329
3729,0.00355409
3730.12,0.0037055
3731.25,0.0113559
3732.38,0.0166144
3733.51,0.00211158
3734.64,-0.00295662
3735.77,-0.0034927
3736.89,-0.00456691
3738.02,-0.00760129
3739.15,-0.003417
3740.28,-0.00915428
3741.4,-0.00377302
3742.53,-0.00030487
3743.66,0.00177193
3744.78,0.00443801
3745.91,0.00796549
3747.04,0.0127718
3748.16,0.0108096
3749.29,0.0148384
3750.41,0.0159126
3751.54,0.0166614
3752.66,0.0235486
3753.79,0.0155525
3754.91,0.00760947
3756.04,0.00811691
3757.16,0.0125385
3758.28,0.00684423
3759.41,0.00456896
3760.53,-0.00191311
3761.65,0.00263129
3762.78,0.00878394
3763.9,0.000486973
3765.02,0.00627132
3766.15,0.000515619
3767.27,-0.00237144
3768.39,-0.0161376
3769.51,-0.000161642
3770.63,0.00497613
3771.75,0.000871642
3772.88,0.00148547
3774,0.0158553
3775.12,-0.00632452
3776.24,-0.00376893
3777.36,-0.00898036
3778.48,-0.000622016
3779.6,0.00696086
3780.72,0.00186196
3781.84,-0.000671123
3782.96,-0.000675215
3784.08,0.000476743
3785.19,0.00328809
3786.31,0.000671123
3787.43,0.000994408
3788.55,0.000313054
3789.67,0.00523803
3790.79,-0.00723708
3791.9,-0.00434798
3793.02,-0.000740691
3794.14,-0.00209931
3795.25,-0.00264766
3796.37,-0.0061506
3797.49,0.0127022
3798.6,0.00851385
3799.72,0.0142634
3800.84,0.0245021
3801.95,0.0307039
3803.07,0.0263477
3804.18,0.0245901
3805.3,0.0140179
3806.41,0.0167638
3807.53,-0.00523599
3808.64,-0.00731074
3809.76,0.00104965
3810.87,-0.00273565
3811.98,0.00494749
3813.1,0.00294435
3814.21,-0.00577821
3815.32,-0.00959215
3816.44,0.00415769
3817.55,-0.00692812
3818.66,-0.00278884
3819.78,0.0169663
3820.89,0.00667645
3822,0.0102449
3823.11,0.00663757
3824.22,-0.000648616
3825.33,0.00703247
3826.45,0.0200212
3827.56,0.0174328
3828.67,0.00940186
3829.78,0.0125651
3830.89,0.0174226
3832,0.021255
3833.11,0.0181981
3834.22,0.0155054
3835.33,0.0164609
3836.44,0.00961466
3837.55,0.00581913
3838.65,0.00677466
3839.76,0.00448507
3840.87,0.00989702
3841.98,0.015178
3843.09,0.0142757
3844.2,0.00828059
3845.3,0.000200518
3846.41,-0.0119922
3847.52,-0.0123687
3848.63,-0.0165857
3849.73,-0.0153806
3850.84,-0.0192211
3851.95,-0.0211138
3853.05,-0.00916451
3854.16,-0.00621812
3855.26,-0.0118326
3856.37,-0.00324513
3857.47,0.00796959
3858.58,0.00599305
3859.69,0.00575365
3860.79,0.0112229
3861.89,0.00643501
3863,-0.0093282
3864.1,-0.00396126
3865.21,-0.0110265
3866.31,-0.00729846
3867.41,-0.00308758
3868.52,0.00346406
3869.62,0.0122725
3870.72,0.00569432
3871.83,0.00173919
3872.93,-0.00127882
3874.03,0.00198268
3875.13,0.00163075
3876.24,0.000965762
3877.34,0.00361138
3878.44,0.000321239
3879.54,0.00733529
3880.64,-0.00053608
3881.74,0.000272132
3882.84,-0.000654754
3883.94,0.00256173
3885.04,0.000542218
3886.14,-0.00759106
3887.24,0.0006568
3888.34,-0.00169213
3889.44,-0.00209317
3890.54,0.00100464
3891.64,0.0017883
3892.74,0.00677261
3893.84,0.0075133
3894.94,0.00265994
3896.04,-0.000521757
3897.13,0.00119083
3898.23,0.00552858
3899.33,0.00174533
3900.43,0.00088801
3901.52,-0.00736394
3902.62,-0.00250648
3903.72,0.000534034
3904.82,0.00302824
3905.91,0.00169213
3907.01,-0.00361342
3908.1,0.006834
3909.2,-0.00269882
3910.3,-0.00296276
3911.39,-0.00232029
3912.49,0.00559815
3913.58,0.00210544
3914.68,0.0055204
3915.77,0.00438072
3916.87,-0.00218729
3917.96,-0.000562679
3919.05,-0.00284204
3920.15,-0.00171464
3921.24,0.000963716
3922.33,-0.00192743
3923.43,0.000284409
3924.52,-0.00015755
3925.61,0.0012072
3926.71,-0.000515619
3927.8,-0.00116628
3928.89,0.00216478
3929.98,0.00558792
3931.08,0.00707748
3932.17,0.00749284
3933.26,0.00503956
3934.35,-5.31988e-05
3935.44,-0.00171873
3936.53,-0.00598282
3937.62,0.00174124
3938.71,0.0074908
3939.8,0.00561656
3940.89,0.000585187
3941.98,-0.000280317
3943.07,0.00213614
3944.16,0.00142204
3945.25,0.000816397
3946.34,-0.000100259
3947.43,-3.27377e-05
3948.52,-0.00781613
3949.61,-0.00878803
3950.69,-0.00355
3951.78,0.00154481
3952.87,0.00370755
3953.96,0.00545492
3955.05,0.00257605
3956.13,0.000497204
3957.22,-0.00263334
3958.31,0.00351521
3959.39,0.00210749
3960.48,0.000849134
3961.57,0.0015755
3962.65,-0.00176784
3963.74,-0.00978244
3964.82,-0.00101078
3965.91,-8.38904e-05
3966.99,0.00168599
3968.08,0.00527077
3969.16,-0.00188856
3970.25,0.00316328
3971.33,0.00681763
3972.42,-0.00213204
3973.5,-0.00455873
3974.59,0.00176579
3975.67,0.00225072
3976.75,0.00421089
3977.84,0.00260674
3978.92,0.00393876
3980,0.00209931
3981.08,0.00595213
3982.17,-0.00235507
3983.25,0.00594189
3984.33,0.00302415
3985.41,-0.0046242
3986.49,-0.000474697
3987.58,-0.00261697
3988.66,-0.00353772
3989.74,-0.0015755
3990.82,0.00386305
3991.9,0.000873688
3992.98,0.00387737
3994.06,0.00300369
3995.14,0.00227322
3996.22,-0.00226709
3997.3,-0.00139749
3998.38,-0.00527691
